date,close,volume
2018-04-25,93.15,298683
2018-04-26,93.28,416966
2018-04-27,93.46,407466
2018-04-30,93.5,907788
2018-05-01,93.54,427775
2018-05-02,92.56,631054
2018-05-03,91.12,560175
2018-05-04,92.26,339865
2018-05-07,92.8,215114
2018-05-08,91.76,284677
2018-05-09,92.96,255572
2018-05-10,93.79,377871
2018-05-11,94.29,492917
2018-05-14,93.37,477510
2018-05-15,92.1,406481
2018-05-16,93.54,257640
2018-05-17,93.29,242644
2018-05-18,93.56,272286
2018-05-21,94.01,162296
2018-05-22,93.96,165668
2018-05-23,94.09,165822
2018-05-24,94.03,116184
2018-05-25,94.08,154961
2018-05-29,93.31,212663
2018-05-30,93.96,258583
2018-05-31,92.32,151882
2018-06-01,92.77,174812
2018-06-04,93.86,172130
2018-06-05,93.92,114863
2018-06-06,93.91,437318
2018-06-07,93.24,534002
2018-06-08,93.66,290594
2018-06-11,93.82,389397
2018-06-12,94.15,455067
2018-06-13,94.32,321416
2018-06-14,94.86,320421
2018-06-15,94.92,505171
2018-06-18,94.84,347357
2018-06-19,94.25,333769
2018-06-20,94.64,285642
2018-06-21,93.1,296952
2018-06-22,92.63,750023
2018-06-25,92.18,348676
2018-06-26,92.71,266687
2018-06-27,92.1,295836
2018-06-28,92.71,251317
2018-06-29,93.38,336590
2018-07-02,93.59,237713
2018-07-03,93.99,178013
2018-07-05,94.54,249933
2018-07-06,94.08,238034
2018-07-09,95.1,188737
2018-07-10,96.11,216111
2018-07-11,95.68,220824
2018-07-12,95.74,196740
2018-07-13,94.87,205285
2018-07-16,93.29,132207
2018-07-17,94.64,155525
2018-07-18,94.62,150047
2018-07-19,96.33,213372
2018-07-20,95.78,192974
2018-07-23,95.14,196130
2018-07-24,94.75,225316
2018-07-25,94.73,182350
2018-07-26,96.07,170348
2018-07-27,102.9,637544
2018-07-30,102.5,531829
2018-07-31,102.43,588092
2018-08-01,102.43,301378
2018-08-02,102.98,327441
2018-08-03,104.1,300426
2018-08-06,104.21,279828
2018-08-07,103.55,296459
2018-08-08,102.96,277860
2018-08-09,103.9,265741
2018-08-10,102.38,325603
2018-08-13,101.4,227754
2018-08-14,101.98,176471
2018-08-15,101.34,300646
2018-08-16,101.67,276339
2018-08-17,102.76,131912
2018-08-20,102.86,198860
2018-08-21,103.29,209565
2018-08-22,103.18,103272
2018-08-23,102.91,124393
2018-08-24,103.8,127262
2018-08-27,104.54,175418
2018-08-28,103.89,214901
2018-08-29,104.7,200032
2018-08-30,104.7,231956
2018-08-31,104.71,152976
2018-09-04,106.38,323596
2018-09-05,108.18,334141
2018-09-06,108.95,228403
2018-09-07,107.9,258482
2018-09-10,108.56,212420
2018-09-11,108.52,101635
2018-09-12,109.39,154730
2018-09-13,110.82,273891
2018-09-14,111.97,424194
2018-09-17,111.3,564522
2018-09-18,111.59,202630
2018-09-19,111.13,204276
2018-09-20,110.49,204539
2018-09-21,110.32,473172
2018-09-24,110.38,352381
2018-09-25,108.76,279003
2018-09-26,108.6,629135
2018-09-27,108.34,255606
2018-09-28,107.74,417093
2018-10-01,107.77,208783
2018-10-02,108.15,210333
2018-10-03,108.0,361245
2018-10-04,107.09,273292
2018-10-05,107.17,220877
2018-10-08,107.67,164691
2018-10-09,105.72,277638
2018-10-10,102.42,456009
2018-10-11,101.57,312734
2018-10-12,101.65,399111
2018-10-15,102.15,239587
2018-10-16,105.6,231291
2018-10-17,105.02,181208
2018-10-18,104.27,439856
2018-10-19,104.32,271771
2018-10-22,103.97,199259
2018-10-23,103.68,479536
2018-10-24,100.08,498333
2018-10-25,101.29,299776
2018-10-26,100.36,423761
2018-10-29,100.16,271254
2018-10-30,101.37,318586
2018-10-31,101.96,417195
2018-11-01,103.18,392576
2018-11-02,103.8,959342
2018-11-05,101.88,481521
2018-11-06,104.1,381287
2018-11-07,105.11,340223
2018-11-08,105.13,368402
2018-11-09,104.29,227448
2018-11-12,101.77,343096
2018-11-13,102.38,225157
2018-11-14,102.08,163246
2018-11-15,104.79,261036
2018-11-16,106.28,235495
2018-11-19,105.18,192668
2018-11-20,104.31,246845
2018-11-21,103.5,221565
2018-11-23,103.9,75383
2018-11-26,103.69,231733
2018-11-27,102.3,213379
2018-11-28,104.03,327835
2018-11-29,103.85,238440
2018-11-30,104.05,330395
2018-12-03,104.46,292031
2018-12-04,102.94,273098
2018-12-06,101.63,302903
2018-12-07,99.77,226104
2018-12-10,99.11,161095
2018-12-11,98.67,192638
2018-12-12,99.93,240918
2018-12-13,100.32,167754
2018-12-14,100.34,187060
2018-12-17,98.64,313945
2018-12-18,97.94,231027
2018-12-19,95.59,268346
2018-12-20,95.01,248103
2018-12-21,93.55,588809
2018-12-24,89.7,168286
2018-12-26,91.77,394422
2018-12-27,92.37,467457
2018-12-28,92.7,437401
2018-12-31,94.07,246890
2019-01-02,90.18,517509
2019-01-03,89.09,637150
2019-01-04,91.07,433585
2019-01-07,91.95,525521
2019-01-08,93.52,379628
2019-01-09,93.48,195706
2019-01-10,94.58,205761
2019-01-11,94.73,248230
2019-01-14,93.96,210516
2019-01-15,94.81,213878
2019-01-16,94.71,187128
2019-01-17,95.93,265504
2019-01-18,97.69,237430
2019-01-22,96.44,304042
2019-01-23,97.38,266276
2019-01-24,97.13,135290
2019-01-25,97.39,116296
2019-01-28,97.88,217930
2019-01-29,97.94,161557
2019-01-30,97.96,292489
2019-01-31,99.12,346521
2019-02-01,99.55,269591
2019-02-04,99.85,137152
2019-02-05,101.07,288010
2019-02-06,101.59,206815
2019-02-07,101.95,202107
2019-02-08,101.39,184333
2019-02-11,101.7,239062
2019-02-12,102.32,230014
2019-02-13,102.8,229736
2019-02-14,101.77,234016
2019-02-15,101.94,235783
2019-02-19,101.55,378752
2019-02-20,102.26,282132
2019-02-21,103.12,508609
2019-02-22,102.05,303446
2019-02-25,101.56,336106
2019-02-26,101.31,302453
2019-02-27,101.41,375294
2019-02-28,101.73,311513
2019-03-01,100.81,245917
2019-03-04,101.61,323954
2019-03-05,101.47,210995
2019-03-06,100.49,127463
2019-03-07,99.88,151639
2019-03-08,100.47,146283
2019-03-11,102.02,175345
2019-03-12,102.26,176738
2019-03-13,102.28,287600
2019-03-14,102.89,169366
2019-03-15,103.05,278639
2019-03-18,103.71,132825
2019-03-19,103.6,188787
2019-03-20,103.95,181304
2019-03-21,105.54,194030
2019-03-22,103.83,213244
2019-03-25,104.51,163923
2019-03-26,105.44,262331
2019-03-27,105.52,179545
2019-03-28,106.19,129881
2019-03-29,106.39,337852
2019-04-01,107.71,234028
2019-04-02,107.22,194630
2019-04-03,107.47,201174
2019-04-04,108.1,164039
2019-04-05,108.74,161427
2019-04-08,108.99,149643
2019-04-09,108.16,183397
2019-04-10,109.04,166232
2019-04-11,109.66,228850
2019-04-12,110.31,185905
2019-04-15,109.89,190458
2019-04-16,109.62,197586
2019-04-17,107.7,150516
2019-04-18,108.21,214628
2019-04-22,108.93,165792
2019-04-23,110.06,220847
2019-04-24,109.94,152213
2019-04-25,109.45,132433
2019-04-26,111.42,138903
2019-04-29,111.32,137617
2019-04-30,111.24,277619
2019-05-01,112.81,336088
2019-05-02,113.0,345204
2019-05-03,113.85,310238
2019-05-06,115.02,263005
2019-05-07,113.97,159469
2019-05-08,113.99,169440
2019-05-09,113.0,259340
2019-05-10,113.6,225077
2019-05-13,112.8,160051
2019-05-14,112.98,132569
2019-05-15,113.24,116542
2019-05-16,114.11,218788
2019-05-17,113.78,151774
2019-05-20,113.04,175618
2019-05-21,113.48,156312
2019-05-22,113.15,146841
2019-05-23,112.96,119559
2019-05-24,112.93,117688
2019-05-28,112.9,259214
2019-05-29,112.7,188163
2019-05-30,113.51,128668
2019-05-31,113.27,247393
2019-06-03,114.03,297386
2019-06-04,115.72,483419
2019-06-05,117.13,391954
2019-06-06,120.23,319780
2019-06-07,121.92,427824
2019-06-10,123.22,253226
2019-06-11,122.58,365595
2019-06-12,121.62,273428
2019-06-13,120.72,166542
2019-06-14,120.09,187349
2019-06-17,120.17,136290
2019-06-18,119.49,208300
2019-06-19,119.41,340170
2019-06-20,119.81,335216
2019-06-21,119.38,603561
2019-06-24,118.78,187657
2019-06-25,121.06,300711
2019-06-26,119.24,236658
2019-06-27,121.55,247700
2019-06-28,124.34,831071
2019-07-01,124.27,322479
2019-07-02,123.54,402402
2019-07-03,125.92,188631
2019-07-05,124.61,255265
2019-07-08,123.99,199616
2019-07-09,124.07,235037
2019-07-10,123.58,169886
2019-07-11,124.02,226439
2019-07-12,123.41,240997
2019-07-15,122.92,189630
2019-07-16,123.16,230822
2019-07-17,123.53,267313
2019-07-18,124.36,185306
2019-07-19,123.4,226034
2019-07-22,123.16,153780
2019-07-23,124.51,183579
2019-07-24,123.29,215324
2019-07-25,122.92,273685
2019-07-26,124.49,198002
2019-07-29,124.94,277407
2019-07-30,123.81,223556
2019-07-31,121.02,621401
2019-08-01,117.56,532978
2019-08-02,118.02,316584
2019-08-05,117.08,462482
2019-08-06,119.72,356431
2019-08-07,121.66,268721
2019-08-08,122.87,374310
2019-08-09,121.08,186567
2019-08-12,120.02,135119
2019-08-13,121.22,216331
2019-08-14,119.09,375783
2019-08-15,118.33,238377
2019-08-16,120.25,202454
2019-08-19,120.22,206391
2019-08-20,118.88,141804
2019-08-21,119.33,298497
2019-08-22,120.54,227117
2019-08-23,120.26,296120
2019-08-26,120.99,237130
2019-08-27,121.5,182973
2019-08-28,121.86,247153
2019-08-29,121.69,184620
2019-08-30,122.22,183744
2019-09-03,119.65,265545
2019-09-04,121.94,160881
2019-09-05,121.2,230128
2019-09-06,120.88,239256
2019-09-09,119.1,232906
2019-09-10,119.11,258227
2019-09-11,118.63,231671
2019-09-12,118.05,163331
2019-09-13,118.4,270017
2019-09-16,116.48,192124
2019-09-17,117.01,222160
2019-09-18,118.3,253484
2019-09-19,117.85,304304
2019-09-20,118.05,528359
2019-09-23,118.1,173948
2019-09-24,118.51,198378
2019-09-25,119.12,226637
2019-09-26,118.92,117884
2019-09-27,118.67,149159
2019-09-30,118.45,230822
2019-10-01,117.67,143491
2019-10-02,115.35,234759
2019-10-03,114.99,241121
2019-10-04,117.33,162667
2019-10-07,116.56,229873
2019-10-08,114.78,221942
2019-10-09,116.48,134746
2019-10-10,116.31,102448
2019-10-11,116.33,213734
2019-10-14,115.85,131911
2019-10-15,115.18,182756
2019-10-16,115.47,213726
2019-10-17,116.55,153825
2019-10-18,117.78,219124
2019-10-21,117.9,143014
2019-10-22,116.66,85350
2019-10-23,117.37,110689
2019-10-24,117.34,122463
2019-10-25,117.88,120328
2019-10-28,118.2,134129
2019-10-29,118.51,147331
2019-10-30,119.25,148246
2019-10-31,118.15,316017
2019-11-01,110.79,598773
2019-11-04,108.67,556284
2019-11-05,108.66,386560
2019-11-06,109.49,370819
2019-11-07,109.4,195460
2019-11-08,109.0,303487
2019-11-11,108.58,181486
2019-11-12,108.22,185369
2019-11-13,109.62,385407
2019-11-14,110.47,223955
2019-11-15,109.96,307326
2019-11-18,110.34,352107
2019-11-19,110.5,258673
2019-11-20,110.7,961396
2019-11-21,111.3,244217
2019-11-22,110.12,151654
2019-11-25,110.95,264408
2019-11-26,112.56,225281
2019-11-27,112.83,145542
2019-11-29,112.12,89345
2019-12-02,112.01,291029
2019-12-03,112.71,250620
2019-12-04,111.78,284584
2019-12-05,111.95,243742
2019-12-06,112.08,322658
2019-12-09,112.63,256939
2019-12-10,111.94,219460
2019-12-11,112.57,141102
2019-12-12,114.18,406995
2019-12-13,113.97,380394
2019-12-16,114.32,194198
2019-12-17,113.35,248897
2019-12-18,113.08,204047
2019-12-19,113.26,172102
2019-12-20,114.96,473535
2019-12-23,115.37,144269
2019-12-24,114.73,63750
2019-12-26,114.82,110947
2019-12-27,115.02,87765
2019-12-30,115.76,193016
2019-12-31,115.62,310703
2020-01-02,113.68,362728
2020-01-03,114.04,221476
2020-01-06,114.05,282380
2020-01-07,112.91,234706
2020-01-08,113.22,331007
2020-01-09,114.66,329059
2020-01-10,115.79,196772
2020-01-13,116.2,248524
2020-01-14,116.13,160769
2020-01-15,116.71,241474
2020-01-16,118.22,187250
2020-01-17,117.32,190576
2020-01-21,115.63,189290
2020-01-22,115.67,141849
2020-01-23,117.37,301049
2020-01-24,117.12,213020
2020-01-27,116.49,239142
2020-01-28,115.97,178570
2020-01-29,115.94,211190
2020-01-30,116.54,153240
2020-01-31,115.51,300725
2020-02-03,117.24,271260
2020-02-04,116.95,313719
2020-02-05,117.87,188114
2020-02-06,117.53,247828
2020-02-07,116.7,144458
2020-02-10,115.8,142588
2020-02-11,116.05,197557
2020-02-12,114.71,448151
2020-02-13,116.2,200392
2020-02-14,116.67,216777
2020-02-18,115.26,271337
2020-02-19,115.01,289187
2020-02-20,114.93,378435
2020-02-21,111.98,720605
2020-02-24,109.21,447892
2020-02-25,106.94,641406
2020-02-26,104.68,504540
2020-02-27,102.4,670787
2020-02-28,101.07,690812
2020-03-02,103.58,331763
2020-03-03,102.76,353265
2020-03-04,107.44,294471
2020-03-05,103.98,273797
2020-03-06,107.3,623961
2020-03-09,101.45,597080
2020-03-10,103.99,522291
2020-03-11,99.08,705829
2020-03-12,94.4,843114
2020-03-13,96.39,595966
2020-03-16,87.88,667379
2020-03-17,96.45,595700
2020-03-18,96.75,761995
2020-03-19,98.88,354696
2020-03-20,92.51,727300
2020-03-23,83.93,698781
2020-03-24,88.06,535619
2020-03-25,90.18,576162
2020-03-26,96.2,447015
2020-03-27,94.0,482017
2020-03-30,100.48,435369
2020-03-31,99.54,531024
2020-04-01,96.21,296454
2020-04-02,96.15,455721
2020-04-03,94.19,370613
2020-04-06,100.76,503240
2020-04-07,101.12,378002
2020-04-08,104.11,328512
2020-04-09,107.27,399311
2020-04-13,102.35,233958
2020-04-14,104.02,239697
2020-04-15,100.93,441407
2020-04-16,101.85,293985
2020-04-17,102.94,256174
2020-04-20,106.94,856350
2020-04-21,106.12,475521
2020-04-22,106.3,436386
2020-04-23,105.02,347570
2020-04-24,104.12,377042
2020-04-27,112.58,457659
2020-04-28,111.18,274579
2020-04-29,110.08,236573
2020-04-30,107.08,730612
2020-05-01,106.14,506241
2020-05-04,106.81,324286
2020-05-05,105.56,332492
2020-05-06,104.86,234008
2020-05-07,105.47,285187
2020-05-08,107.53,259739
2020-05-11,106.31,343952
2020-05-12,103.95,233339
2020-05-13,102.42,267134
2020-05-14,102.46,246163
2020-05-15,101.5,476362
2020-05-18,104.15,304487
2020-05-19,103.73,214667
2020-05-20,104.41,146204
2020-05-21,105.09,233923
2020-05-22,105.1,151218
2020-05-26,109.55,332201
2020-05-27,112.55,290412
2020-05-28,111.6,233602
2020-05-29,111.39,215318
2020-06-01,111.42,276997
2020-06-02,112.07,224886
2020-06-03,113.28,196644
2020-06-04,112.14,182483
2020-06-05,113.4,235497
2020-06-08,113.58,244697
2020-06-09,112.47,292106
2020-06-10,111.64,366637
2020-06-11,104.25,376921
2020-06-12,105.36,247251
2020-06-15,105.41,235865
2020-06-16,107.39,252957
2020-06-17,106.91,208807
2020-06-18,106.99,217800
2020-06-19,107.6,303717
2020-06-22,107.55,241927
2020-06-23,107.44,228314
2020-06-24,105.94,433916
2020-06-25,107.6,263614
2020-06-26,107.72,924172
2020-06-29,109.25,189285
2020-06-30,111.98,421798
2020-07-01,112.48,247922
2020-07-02,114.97,271425
2020-07-06,115.26,330868
2020-07-07,115.15,346528
2020-07-08,112.93,205938
2020-07-09,113.76,307154
2020-07-10,114.95,244485
2020-07-13,113.43,288988
2020-07-14,116.31,193586
2020-07-15,117.9,326948
2020-07-16,117.24,252948
2020-07-17,119.4,248994
2020-07-20,119.29,183176
2020-07-21,118.18,394270
2020-07-22,118.5,414622
2020-07-23,118.44,286702
2020-07-24,118.85,244683
2020-07-27,119.85,281806
2020-07-28,118.05,208599
2020-07-29,118.81,251179
2020-07-30,117.91,359798
2020-07-31,115.2,668147
2020-08-03,118.66,292930
2020-08-04,118.62,233133
2020-08-05,118.36,164691
2020-08-06,117.66,246500
2020-08-07,119.25,202340
2020-08-10,117.0,204743
2020-08-11,116.74,214088
2020-08-12,118.09,171798
2020-08-13,118.52,213844
2020-08-14,118.49,134592
